SpectraSuite Data File
++++++++++++++++++++++++++++++++++++
Date: Mon Dec 07 11:31:28 CET 2020
User: kruno
Dark Spectrum Present: Yes
Reference Spectrum Present: Yes
Number of Sampled Component Spectra: 1
Spectrometers: HR4C252
Integration Time (usec): 5000 (HR4C252)
Spectra Averaged: 250 (HR4C252)
Boxcar Smoothing: 0 (HR4C252)
Correct for Electrical Dark: No (HR4C252)
Strobe/Lamp Enabled: No (HR4C252)
Correct for Detector Non-linearity: No (HR4C252)
Correct for Stray Light: No (HR4C252)
Number of Pixels in Processed Spectrum: 3648
>>>>>Begin Processed Spectral Data<<<<<
195.26	604.688
195.53	604.688
195.80	604.688
196.07	-678.824
196.34	-1014.400
196.61	-1614.563
196.88	-515.957
197.15	-234.191
197.42	-352.488
197.70	-543.542
197.97	-472.695
198.24	-466.782
198.51	-5570.370
198.78	-1168.852
199.05	2306.849
199.32	-405.369
199.59	-596.774
199.86	-186.127
200.13	-12.930
200.40	12.228
200.67	5.140
200.94	8.741
201.21	9.809
201.48	9.249
201.74	-3.259
202.01	1.132
202.28	4.291
202.55	4.628
202.82	6.948
203.09	11.231
203.36	11.123
203.63	7.769
203.90	1.780
204.17	5.613
204.44	11.716
204.71	2.448
204.98	-7.510
205.25	-5.448
205.52	-3.989
205.79	-2.146
206.06	-0.060
206.33	-0.942
206.60	5.997
206.87	12.507
207.14	13.593
207.41	-0.395
207.68	-1.259
207.95	3.413
208.22	3.450
208.49	0.270
208.76	3.600
209.03	0.508
209.30	-4.026
209.57	3.403
209.84	0.915
210.11	-5.564
210.38	-1.459
210.65	-3.186
210.92	7.961
211.19	3.011
211.46	-0.344
211.73	-5.442
212.00	-4.262
212.27	3.159
212.54	5.561
212.80	1.757
213.07	2.555
213.34	4.078
213.61	5.176
213.88	1.976
214.15	-5.255
214.42	0.062
214.69	10.933
214.96	4.893
215.23	-1.686
215.50	-4.194
215.77	-4.751
216.04	-1.693
216.31	-1.693
216.58	6.206
216.85	12.590
217.12	5.624
217.39	5.245
217.66	3.617
217.93	7.161
218.19	8.643
218.46	-0.581
218.73	10.296
219.00	16.255
219.27	7.891
219.54	0.415
219.81	6.844
220.08	4.964
220.35	16.388
220.62	3.123
220.89	-0.792
221.16	7.024
221.43	8.906
221.70	3.002
221.97	-0.126
222.23	2.498
222.50	0.628
222.77	1.751
223.04	15.413
223.31	27.439
223.58	13.625
223.85	9.861
224.12	12.390
224.39	1.901
224.66	-3.676
224.93	3.475
225.20	1.339
225.46	-9.411
225.73	7.042
226.00	1.442
226.27	-2.067
226.54	3.040
226.81	11.023
227.08	12.541
227.35	11.480
227.62	7.793
227.89	4.437
228.16	0.581
228.43	3.826
228.69	7.890
228.96	0.800
229.23	0.584
229.50	4.163
229.77	4.693
230.04	10.568
230.31	5.499
230.58	7.233
230.85	2.823
231.12	3.454
231.38	3.548
231.65	9.378
231.92	8.802
232.19	5.484
232.46	1.695
232.73	6.446
233.00	4.316
233.27	-1.288
233.54	-5.707
233.80	2.971
234.07	4.059
234.34	2.859
234.61	7.777
234.88	0.547
235.15	-0.750
235.42	2.124
235.69	5.422
235.96	3.062
236.22	8.942
236.49	4.287
236.76	1.840
237.03	8.021
237.30	-1.757
237.57	3.139
237.84	0.593
238.11	-4.068
238.37	-0.729
238.64	5.455
238.91	8.009
239.18	8.859
239.45	14.339
239.72	6.543
239.99	7.780
240.26	7.009
240.52	1.735
240.79	11.415
241.06	1.904
241.33	0.305
241.60	10.518
241.87	10.522
242.14	5.050
242.40	14.341
242.67	11.359
242.94	3.284
243.21	-0.970
243.48	4.015
243.75	7.274
244.02	1.326
244.28	1.151
244.55	6.803
244.82	3.994
245.09	3.813
245.36	5.417
245.63	10.350
245.90	7.854
246.16	9.326
246.43	10.899
246.70	13.354
246.97	9.376
247.24	3.223
247.51	6.173
247.77	8.651
248.04	4.053
248.31	3.593
248.58	8.027
248.85	6.014
249.12	5.279
249.39	-0.084
249.65	5.231
249.92	1.750
250.19	2.753
250.46	3.352
250.73	4.135
251.00	10.315
251.26	6.319
251.53	3.082
251.80	6.944
252.07	6.170
252.34	2.194
252.61	3.829
252.87	4.608
253.14	-3.092
253.41	4.747
253.68	5.973
253.95	2.481
254.21	2.090
254.48	4.079
254.75	5.129
255.02	2.224
255.29	1.501
255.56	2.745
255.82	3.208
256.09	0.369
256.36	4.543
256.63	3.023
256.90	1.705
257.16	4.125
257.43	4.330
257.70	2.500
257.97	1.021
258.24	1.937
258.50	2.584
258.77	0.996
259.04	0.774
259.31	0.723
259.58	0.510
259.85	0.668
260.11	0.826
260.38	0.967
260.65	0.420
260.92	0.342
261.19	0.722
261.45	0.336
261.72	0.304
261.99	0.386
262.26	0.638
262.53	0.233
262.79	0.100
263.06	0.126
263.33	0.302
263.60	0.341
263.86	0.607
264.13	0.404
264.40	0.194
264.67	0.095
264.94	0.199
265.20	0.301
265.47	0.072
265.74	0.165
266.01	0.280
266.28	0.238
266.54	0.234
266.81	0.264
267.08	0.254
267.35	0.140
267.61	0.216
267.88	0.243
268.15	0.262
268.42	0.340
268.69	0.053
268.95	0.094
269.22	0.010
269.49	-0.121
269.76	0.091
270.02	0.067
270.29	0.084
270.56	0.188
270.83	0.201
271.09	0.217
271.36	0.180
271.63	0.159
271.90	0.249
272.17	0.168
272.43	0.248
272.70	0.169
272.97	0.183
273.24	0.110
273.50	-0.007
273.77	0.061
274.04	0.003
274.31	0.143
274.57	0.133
274.84	0.146
275.11	0.280
275.38	0.169
275.64	0.204
275.91	0.140
276.18	0.107
276.45	0.204
276.71	0.197
276.98	0.216
277.25	0.133
277.52	0.084
277.78	0.051
278.05	0.091
278.32	0.137
278.59	0.129
278.85	0.165
279.12	0.201
279.39	0.126
279.66	0.099
279.92	0.186
280.19	0.186
280.46	0.140
280.73	0.167
280.99	0.057
281.26	0.207
281.53	0.230
281.79	0.209
282.06	0.185
282.33	0.190
282.60	0.161
282.86	0.091
283.13	0.082
283.40	0.091
283.67	0.129
283.93	0.320
284.20	0.211
284.47	0.136
284.73	0.133
285.00	0.065
285.27	0.085
285.54	0.213
285.80	0.238
286.07	0.248
286.34	0.113
286.60	0.205
286.87	0.133
287.14	0.146
287.41	0.040
287.67	0.130
287.94	0.171
288.21	0.071
288.47	0.109
288.74	0.269
289.01	0.135
289.28	0.151
289.54	0.077
289.81	0.248
290.08	0.185
290.34	0.197
290.61	0.130
290.88	0.211
291.15	0.099
291.41	0.197
291.68	0.089
291.95	0.168
292.21	0.250
292.48	0.205
292.75	0.288
293.01	0.262
293.28	0.234
293.55	0.204
293.81	0.169
294.08	0.105
294.35	0.148
294.62	0.204
294.88	0.018
295.15	0.095
295.42	0.051
295.68	0.036
295.95	0.038
296.22	0.052
296.48	0.127
296.75	0.077
297.02	0.117
297.28	0.178
297.55	0.132
297.82	0.086
298.08	0.182
298.35	0.157
298.62	0.226
298.88	0.123
299.15	0.186
299.42	0.185
299.69	0.169
299.95	0.198
300.22	0.224
300.49	0.184
300.75	0.259
301.02	0.132
301.29	0.088
301.55	0.088
301.82	0.100
302.09	0.119
302.35	0.226
302.62	0.201
302.89	0.127
303.15	0.059
303.42	0.089
303.69	0.140
303.95	0.209
304.22	0.145
304.48	0.115
304.75	0.129
305.02	0.192
305.28	0.101
305.55	0.098
305.82	0.056
306.08	0.040
306.35	0.079
306.62	0.146
306.88	0.154
307.15	0.069
307.42	0.098
307.68	0.113
307.95	0.092
308.22	0.078
308.48	0.081
308.75	0.033
309.02	0.082
309.28	0.115
309.55	0.168
309.81	0.147
310.08	0.146
310.35	0.197
310.61	0.146
310.88	0.254
311.15	0.164
311.41	0.193
311.68	0.189
311.95	0.131
312.21	0.145
312.48	0.113
312.74	0.083
313.01	0.077
313.28	0.042
313.54	0.129
313.81	0.167
314.08	0.170
314.34	0.102
314.61	0.119
314.87	0.082
315.14	0.042
315.41	0.112
315.67	0.127
315.94	0.119
316.21	0.147
316.47	0.235
316.74	0.243
317.00	0.200
317.27	0.151
317.54	0.075
317.80	0.123
318.07	0.101
318.33	0.162
318.60	0.223
318.87	0.216
319.13	0.078
319.40	0.086
319.67	0.156
319.93	0.218
320.20	0.113
320.46	0.073
320.73	0.153
321.00	0.234
321.26	0.059
321.53	0.061
321.79	0.024
322.06	0.078
322.33	0.068
322.59	0.140
322.86	0.128
323.12	0.160
323.39	0.157
323.66	0.121
323.92	0.148
324.19	0.134
324.45	0.150
324.72	0.114
324.99	0.145
325.25	0.175
325.52	0.122
325.78	0.107
326.05	0.053
326.31	0.086
326.58	0.209
326.85	0.185
327.11	0.263
327.38	0.158
327.64	0.081
327.91	0.100
328.18	0.155
328.44	0.190
328.71	0.117
328.97	0.223
329.24	0.198
329.50	0.144
329.77	0.237
330.04	0.150
330.30	0.079
330.57	0.116
330.83	0.110
331.10	0.074
331.36	0.224
331.63	0.209
331.90	0.130
332.16	0.155
332.43	0.200
332.69	0.076
332.96	0.111
333.22	0.113
333.49	0.130
333.75	0.191
334.02	0.112
334.29	0.066
334.55	0.028
334.82	0.113
335.08	0.110
335.35	0.119
335.61	0.113
335.88	0.044
336.15	0.009
336.41	0.177
336.68	0.177
336.94	0.165
337.21	0.171
337.47	0.120
337.74	0.137
338.00	0.136
338.27	0.078
338.53	0.100
338.80	0.149
339.07	0.134
339.33	0.127
339.60	0.183
339.86	0.128
340.13	0.164
340.39	0.214
340.66	0.243
340.92	0.176
341.19	0.082
341.45	0.167
341.72	0.227
341.98	0.120
342.25	0.112
342.52	0.052
342.78	0.201
343.05	0.233
343.31	0.236
343.58	0.205
343.84	0.210
344.11	0.214
344.37	0.161
344.64	0.245
344.90	0.171
345.17	0.307
345.43	0.432
345.70	0.278
345.96	0.194
346.23	0.224
346.49	0.242
346.76	0.256
347.02	0.230
347.29	0.261
347.55	0.270
347.82	0.252
348.09	0.366
348.35	0.271
348.62	0.314
348.88	0.252
349.15	0.299
349.41	0.340
349.68	0.304
349.94	0.315
350.21	0.339
350.47	0.361
350.74	0.423
351.00	0.390
351.27	0.414
351.53	0.415
351.80	0.370
352.06	0.445
352.33	0.511
352.59	0.516
352.86	0.546
353.12	0.579
353.39	0.541
353.65	0.543
353.92	0.586
354.18	0.645
354.45	0.686
354.71	0.688
354.98	0.711
355.24	0.772
355.51	0.846
355.77	0.912
356.04	0.899
356.30	0.909
356.57	0.929
356.83	1.024
357.09	1.024
357.36	1.112
357.62	1.144
357.89	1.194
358.15	1.212
358.42	1.275
358.68	1.336
358.95	1.388
359.21	1.407
359.48	1.436
359.74	1.532
360.01	1.582
360.27	1.617
360.54	1.719
360.80	1.801
361.07	1.867
361.33	1.885
361.60	1.975
361.86	2.123
362.13	2.118
362.39	2.164
362.65	2.258
362.92	2.348
363.18	2.346
363.45	2.445
363.71	2.516
363.98	2.584
364.24	2.748
364.51	2.730
364.77	2.831
365.04	2.916
365.30	2.988
365.57	3.061
365.83	3.094
366.09	3.211
366.36	3.294
366.62	3.399
366.89	3.474
367.15	3.576
367.42	3.640
367.68	3.696
367.95	3.771
368.21	3.859
368.48	3.914
368.74	4.012
369.00	4.106
369.27	4.200
369.53	4.272
369.80	4.317
370.06	4.390
370.33	4.505
370.59	4.632
370.86	4.680
371.12	4.716
371.38	4.863
371.65	4.891
371.91	5.016
372.18	5.094
372.44	5.196
372.71	5.263
372.97	5.342
373.23	5.440
373.50	5.577
373.76	5.647
374.03	5.729
374.29	5.840
374.56	5.915
374.82	6.015
375.08	6.113
375.35	6.155
375.61	6.296
375.88	6.364
376.14	6.455
376.41	6.539
376.67	6.624
376.93	6.679
377.20	6.820
377.46	6.940
377.73	7.039
377.99	7.080
378.25	7.149
378.52	7.257
378.78	7.353
379.05	7.479
379.31	7.548
379.58	7.623
379.84	7.704
380.10	7.805
380.37	7.907
380.63	7.998
380.90	8.069
381.16	8.106
381.42	8.202
381.69	8.345
381.95	8.453
382.22	8.547
382.48	8.587
382.74	8.652
383.01	8.768
383.27	8.887
383.54	8.915
383.80	9.040
384.06	9.118
384.33	9.208
384.59	9.313
384.86	9.383
385.12	9.460
385.38	9.564
385.65	9.733
385.91	9.814
386.18	9.938
386.44	10.013
386.70	10.104
386.97	10.192
387.23	10.273
387.49	10.365
387.76	10.476
388.02	10.548
388.29	10.679
388.55	10.760
388.81	10.874
389.08	10.931
389.34	11.006
389.60	11.115
389.87	11.191
390.13	11.276
390.40	11.441
390.66	11.574
390.92	11.669
391.19	11.769
391.45	11.894
391.71	11.956
391.98	12.019
392.24	12.148
392.51	12.254
392.77	12.330
393.03	12.356
393.30	12.503
393.56	12.583
393.82	12.667
394.09	12.752
394.35	12.878
394.62	12.965
394.88	13.031
395.14	13.128
395.41	13.165
395.67	13.308
395.93	13.413
396.20	13.483
396.46	13.563
396.72	13.655
396.99	13.818
397.25	13.854
397.51	14.024
397.78	14.102
398.04	14.181
398.30	14.225
398.57	14.272
398.83	14.381
399.10	14.452
399.36	14.517
399.62	14.582
399.89	14.679
400.15	14.723
400.41	14.772
400.68	14.883
400.94	14.981
401.20	15.061
401.47	15.103
401.73	15.249
401.99	15.316
402.26	15.363
402.52	15.386
402.78	15.524
403.05	15.646
403.31	15.675
403.57	15.803
403.84	15.904
404.10	15.994
404.36	16.064
404.63	16.118
404.89	16.198
405.15	16.314
405.42	16.398
405.68	16.392
405.94	16.432
406.21	16.473
406.47	16.514
406.73	16.643
407.00	16.683
407.26	16.787
407.52	16.877
407.78	16.888
408.05	16.978
408.31	17.102
408.57	17.121
408.84	17.174
409.10	17.229
409.36	17.345
409.63	17.453
409.89	17.442
410.15	17.532
410.42	17.571
410.68	17.712
410.94	17.845
411.21	17.828
411.47	17.879
411.73	17.970
411.99	18.044
412.26	18.147
412.52	18.187
412.78	18.255
413.05	18.368
413.31	18.426
413.57	18.398
413.84	18.490
414.10	18.542
414.36	18.643
414.62	18.685
414.89	18.764
415.15	18.858
415.41	18.907
415.68	18.937
415.94	18.971
416.20	19.051
416.46	19.130
416.73	19.201
416.99	19.313
417.25	19.288
417.52	19.398
417.78	19.513
418.04	19.546
418.30	19.575
418.57	19.750
418.83	19.809
419.09	19.821
419.36	19.928
419.62	20.057
419.88	20.163
420.14	20.263
420.41	20.358
420.67	20.432
420.93	20.536
421.20	20.654
421.46	20.695
421.72	20.767
421.98	20.811
422.25	20.913
422.51	20.920
422.77	20.965
423.03	21.087
423.30	21.216
423.56	21.277
423.82	21.304
424.08	21.386
424.35	21.398
424.61	21.438
424.87	21.631
425.14	21.665
425.40	21.762
425.66	21.757
425.92	21.871
426.19	21.906
426.45	21.996
426.71	22.043
426.97	22.182
427.24	22.306
427.50	22.411
427.76	22.472
428.02	22.559
428.29	22.654
428.55	22.774
428.81	22.777
429.07	22.925
429.34	23.010
429.60	23.027
429.86	23.102
430.12	23.224
430.39	23.268
430.65	23.356
430.91	23.323
431.17	23.436
431.44	23.478
431.70	23.592
431.96	23.631
432.22	23.674
432.48	23.765
432.75	23.893
433.01	23.964
433.27	24.014
433.53	24.080
433.80	24.213
434.06	24.307
434.32	24.355
434.58	24.416
434.85	24.480
435.11	24.529
435.37	24.606
435.63	24.664
435.89	24.738
436.16	24.731
436.42	24.829
436.68	24.965
436.94	24.975
437.21	25.053
437.47	25.148
437.73	25.194
437.99	25.266
438.25	25.363
438.52	25.446
438.78	25.520
439.04	25.597
439.30	25.609
439.57	25.802
439.83	25.884
440.09	25.892
440.35	25.896
440.61	25.994
440.88	26.107
441.14	26.175
441.40	26.277
441.66	26.309
441.92	26.379
442.19	26.439
442.45	26.478
442.71	26.540
442.97	26.621
443.23	26.734
443.50	26.868
443.76	26.885
444.02	26.911
444.28	27.004
444.54	27.037
444.81	27.143
445.07	27.227
445.33	27.276
445.59	27.368
445.85	27.435
446.12	27.563
446.38	27.546
446.64	27.635
446.90	27.717
447.16	27.750
447.43	27.839
447.69	27.889
447.95	27.978
448.21	28.062
448.47	28.076
448.73	28.134
449.00	28.210
449.26	28.245
449.52	28.380
449.78	28.420
450.04	28.467
450.31	28.522
450.57	28.651
450.83	28.627
451.09	28.712
451.35	28.799
451.61	28.844
451.88	28.886
452.14	28.996
452.40	29.090
452.66	29.218
452.92	29.166
453.18	29.325
453.45	29.366
453.71	29.437
453.97	29.463
454.23	29.548
454.49	29.599
454.75	29.680
455.02	29.761
455.28	29.781
455.54	29.875
455.80	29.957
456.06	30.020
456.32	30.099
456.59	30.170
456.85	30.265
457.11	30.255
457.37	30.294
457.63	30.399
457.89	30.458
458.15	30.584
458.42	30.668
458.68	30.679
458.94	30.772
459.20	30.819
459.46	30.857
459.72	30.928
459.98	31.016
460.25	31.037
460.51	31.114
460.77	31.153
461.03	31.244
461.29	31.276
461.55	31.320
461.81	31.411
462.08	31.468
462.34	31.555
462.60	31.651
462.86	31.702
463.12	31.794
463.38	31.872
463.64	31.898
463.91	31.989
464.17	32.076
464.43	32.107
464.69	32.180
464.95	32.342
465.21	32.357
465.47	32.484
465.73	32.542
466.00	32.622
466.26	32.692
466.52	32.730
466.78	32.769
467.04	32.952
467.30	32.995
467.56	33.097
467.82	33.186
468.09	33.221
468.35	33.324
468.61	33.353
468.87	33.463
469.13	33.608
469.39	33.674
469.65	33.755
469.91	33.869
470.17	33.971
470.44	34.051
470.70	34.148
470.96	34.217
471.22	34.338
471.48	34.451
471.74	34.541
472.00	34.646
472.26	34.739
472.52	34.787
472.79	34.853
473.05	34.969
473.31	35.086
473.57	35.204
473.83	35.297
474.09	35.393
474.35	35.520
474.61	35.568
474.87	35.640
475.13	35.722
475.40	35.833
475.66	35.926
475.92	36.099
476.18	36.198
476.44	36.261
476.70	36.334
476.96	36.443
477.22	36.463
477.48	36.571
477.74	36.707
478.00	36.773
478.26	36.854
478.53	36.926
478.79	36.978
479.05	37.051
479.31	37.138
479.57	37.218
479.83	37.282
480.09	37.420
480.35	37.502
480.61	37.578
480.87	37.674
481.13	37.722
481.39	37.825
481.66	37.861
481.92	37.929
482.18	38.021
482.44	38.129
482.70	38.182
482.96	38.269
483.22	38.375
483.48	38.443
483.74	38.448
484.00	38.516
484.26	38.586
484.52	38.622
484.78	38.731
485.04	38.819
485.30	38.843
485.57	38.935
485.83	39.027
486.09	39.086
486.35	39.169
486.61	39.193
486.87	39.272
487.13	39.347
487.39	39.388
487.65	39.454
487.91	39.507
488.17	39.578
488.43	39.678
488.69	39.787
488.95	39.802
489.21	39.805
489.47	39.805
489.73	39.883
489.99	39.985
490.25	40.045
490.51	40.124
490.78	40.173
491.04	40.221
491.30	40.309
491.56	40.328
491.82	40.435
492.08	40.471
492.34	40.479
492.60	40.587
492.86	40.598
493.12	40.611
493.38	40.670
493.64	40.749
493.90	40.799
494.16	40.873
494.42	40.951
494.68	40.988
494.94	40.990
495.20	41.055
495.46	41.097
495.72	41.121
495.98	41.195
496.24	41.283
496.50	41.307
496.76	41.339
497.02	41.400
497.28	41.376
497.54	41.399
497.80	41.482
498.06	41.551
498.32	41.614
498.58	41.694
498.84	41.773
499.10	41.802
499.36	41.840
499.62	41.914
499.89	41.959
500.15	42.005
500.41	42.037
500.67	42.038
500.93	42.081
501.19	42.163
501.45	42.202
501.71	42.262
501.97	42.311
502.23	42.379
502.49	42.437
502.75	42.422
503.01	42.521
503.27	42.585
503.53	42.646
503.79	42.663
504.05	42.704
504.31	42.748
504.57	42.789
504.83	42.838
505.09	42.852
505.35	42.921
505.61	42.993
505.87	43.058
506.13	43.078
506.39	43.120
506.65	43.210
506.91	43.247
507.17	43.272
507.43	43.312
507.68	43.352
507.94	43.392
508.20	43.434
508.46	43.482
508.72	43.488
508.98	43.549
509.24	43.622
509.50	43.688
509.76	43.702
510.02	43.736
510.28	43.746
510.54	43.761
510.80	43.847
511.06	43.912
511.32	43.888
511.58	43.979
511.84	44.030
512.10	44.075
512.36	44.105
512.62	44.166
512.88	44.208
513.14	44.243
513.40	44.264
513.66	44.296
513.92	44.316
514.18	44.355
514.44	44.389
514.70	44.402
514.96	44.436
515.22	44.470
515.48	44.480
515.74	44.534
516.00	44.560
516.26	44.624
516.52	44.633
516.78	44.693
517.03	44.740
517.29	44.762
517.55	44.798
517.81	44.844
518.07	44.834
518.33	44.864
518.59	44.943
518.85	44.986
519.11	45.033
519.37	45.053
519.63	45.071
519.89	45.154
520.15	45.174
520.41	45.195
520.67	45.191
520.93	45.235
521.19	45.321
521.45	45.404
521.71	45.380
521.96	45.423
522.22	45.483
522.48	45.545
522.74	45.638
523.00	45.654
523.26	45.685
523.52	45.714
523.78	45.767
524.04	45.836
524.30	45.877
524.56	45.906
524.82	45.938
525.08	46.016
525.34	46.082
525.60	46.146
525.85	46.163
526.11	46.217
526.37	46.266
526.63	46.351
526.89	46.396
527.15	46.447
527.41	46.482
527.67	46.535
527.93	46.583
528.19	46.623
528.45	46.719
528.71	46.787
528.97	46.828
529.22	46.954
529.48	47.028
529.74	47.098
530.00	47.091
530.26	47.127
530.52	47.191
530.78	47.257
531.04	47.341
531.30	47.461
531.56	47.530
531.82	47.530
532.07	47.585
532.33	47.643
532.59	47.698
532.85	47.762
533.11	47.839
533.37	47.892
533.63	47.963
533.89	48.050
534.15	48.136
534.41	48.237
534.66	48.286
534.92	48.378
535.18	48.376
535.44	48.430
535.70	48.478
535.96	48.563
536.22	48.630
536.48	48.723
536.74	48.787
536.99	48.876
537.25	48.882
537.51	48.977
537.77	49.108
538.03	49.132
538.29	49.203
538.55	49.238
538.81	49.310
539.07	49.370
539.32	49.390
539.58	49.455
539.84	49.522
540.10	49.632
540.36	49.666
540.62	49.732
540.88	49.802
541.14	49.814
541.39	49.846
541.65	49.909
541.91	50.007
542.17	49.987
542.43	50.052
542.69	50.132
542.95	50.169
543.21	50.215
543.46	50.263
543.72	50.312
543.98	50.340
544.24	50.404
544.50	50.456
544.76	50.474
545.02	50.484
545.28	50.502
545.53	50.503
545.79	50.594
546.05	50.651
546.31	50.691
546.57	50.712
546.83	50.685
547.09	50.734
547.34	50.752
547.60	50.781
547.86	50.811
548.12	50.894
548.38	50.938
548.64	50.957
548.89	50.958
549.15	50.948
549.41	50.996
549.67	50.973
549.93	51.036
550.19	51.026
550.45	51.031
550.70	51.073
550.96	51.075
551.22	51.109
551.48	51.133
551.74	51.076
552.00	51.089
552.25	51.059
552.51	51.042
552.77	51.075
553.03	51.104
553.29	51.141
553.55	51.135
553.80	51.127
554.06	51.127
554.32	51.127
554.58	51.173
554.84	51.180
555.10	51.180
555.35	51.117
555.61	51.103
555.87	51.102
556.13	51.143
556.39	51.212
556.65	51.190
556.90	51.188
557.16	51.191
557.42	51.218
557.68	51.183
557.94	51.166
558.20	51.103
558.45	51.100
558.71	51.181
558.97	51.162
559.23	51.144
559.49	51.209
559.74	51.185
560.00	51.129
560.26	51.130
560.52	51.164
560.78	51.193
561.03	51.194
561.29	51.175
561.55	51.146
561.81	51.199
562.07	51.195
562.33	51.177
562.58	51.160
562.84	51.170
563.10	51.191
563.36	51.202
563.62	51.243
563.87	51.251
564.13	51.248
564.39	51.236
564.65	51.196
564.91	51.175
565.16	51.229
565.42	51.246
565.68	51.274
565.94	51.305
566.19	51.311
566.45	51.280
566.71	51.286
566.97	51.287
567.23	51.257
567.48	51.256
567.74	51.273
568.00	51.304
568.26	51.259
568.52	51.285
568.77	51.290
569.03	51.336
569.29	51.360
569.55	51.393
569.80	51.419
570.06	51.441
570.32	51.434
570.58	51.424
570.84	51.513
571.09	51.544
571.35	51.526
571.61	51.558
571.87	51.571
572.12	51.619
572.38	51.645
572.64	51.657
572.90	51.688
573.16	51.693
573.41	51.720
573.67	51.754
573.93	51.802
574.19	51.810
574.44	51.827
574.70	51.890
574.96	51.905
575.22	51.923
575.47	51.937
575.73	51.976
575.99	52.004
576.25	52.025
576.50	52.023
576.76	52.054
577.02	52.092
577.28	52.164
577.54	52.196
577.79	52.228
578.05	52.263
578.31	52.337
578.57	52.370
578.82	52.426
579.08	52.414
579.34	52.444
579.60	52.489
579.85	52.504
580.11	52.524
580.37	52.542
580.63	52.575
580.88	52.621
581.14	52.637
581.40	52.725
581.65	52.757
581.91	52.759
582.17	52.834
582.43	52.905
582.68	52.960
582.94	53.020
583.20	53.051
583.46	53.102
583.71	53.142
583.97	53.138
584.23	53.190
584.49	53.247
584.74	53.312
585.00	53.346
585.26	53.391
585.51	53.445
585.77	53.503
586.03	53.547
586.29	53.589
586.54	53.683
586.80	53.727
587.06	53.748
587.32	53.794
587.57	53.860
587.83	53.904
588.09	53.931
588.34	53.986
588.60	54.007
588.86	54.065
589.12	54.176
589.37	54.252
589.63	54.292
589.89	54.318
590.14	54.361
590.40	54.464
590.66	54.456
590.92	54.447
591.17	54.512
591.43	54.549
591.69	54.630
591.94	54.736
592.20	54.765
592.46	54.783
592.72	54.843
592.97	54.893
593.23	55.007
593.49	55.066
593.74	55.089
594.00	55.126
594.26	55.216
594.51	55.272
594.77	55.312
595.03	55.386
595.29	55.467
595.54	55.498
595.80	55.553
596.06	55.574
596.31	55.640
596.57	55.703
596.83	55.719
597.08	55.791
597.34	55.878
597.60	55.919
597.85	55.934
598.11	55.979
598.37	56.035
598.62	56.095
598.88	56.146
599.14	56.212
599.40	56.291
599.65	56.316
599.91	56.366
600.17	56.438
600.42	56.433
600.68	56.472
600.94	56.545
601.19	56.574
601.45	56.674
601.71	56.712
601.96	56.757
602.22	56.829
602.48	56.940
602.73	56.963
602.99	57.032
603.25	57.103
603.50	57.161
603.76	57.235
604.02	57.254
604.27	57.275
604.53	57.328
604.79	57.411
605.04	57.449
605.30	57.450
605.56	57.528
605.81	57.599
606.07	57.691
606.33	57.703
606.58	57.749
606.84	57.807
607.10	57.847
607.35	57.921
607.61	57.967
607.87	58.006
608.12	58.054
608.38	58.122
608.64	58.197
608.89	58.328
609.15	58.351
609.40	58.399
609.66	58.445
609.92	58.441
610.17	58.497
610.43	58.604
610.69	58.727
610.94	58.762
611.20	58.806
611.46	58.846
611.71	58.906
611.97	58.949
612.23	58.934
612.48	59.021
612.74	59.100
612.99	59.166
613.25	59.211
613.51	59.250
613.76	59.287
614.02	59.333
614.28	59.408
614.53	59.432
614.79	59.466
615.04	59.565
615.30	59.647
615.56	59.711
615.81	59.742
616.07	59.816
616.33	59.842
616.58	59.882
616.84	59.908
617.10	59.989
617.35	60.041
617.61	60.018
617.86	60.087
618.12	60.131
618.38	60.163
618.63	60.195
618.89	60.316
619.14	60.390
619.40	60.398
619.66	60.436
619.91	60.473
620.17	60.549
620.43	60.616
620.68	60.628
620.94	60.639
621.19	60.705
621.45	60.705
621.71	60.774
621.96	60.849
622.22	60.929
622.47	60.899
622.73	60.914
622.99	60.931
623.24	61.043
623.50	61.132
623.75	61.105
624.01	61.145
624.27	61.236
624.52	61.255
624.78	61.235
625.03	61.263
625.29	61.327
625.55	61.373
625.80	61.343
626.06	61.394
626.31	61.422
626.57	61.483
626.83	61.535
627.08	61.613
627.34	61.626
627.59	61.662
627.85	61.673
628.10	61.706
628.36	61.746
628.62	61.741
628.87	61.696
629.13	61.755
629.38	61.810
629.64	61.863
629.90	61.923
630.15	61.962
630.41	61.990
630.66	61.953
630.92	61.908
631.17	61.909
631.43	61.949
631.69	61.996
631.94	62.036
632.20	62.026
632.45	62.038
632.71	62.077
632.96	62.100
633.22	62.089
633.48	62.079
633.73	62.064
633.99	62.099
634.24	62.179
634.50	62.187
634.75	62.207
635.01	62.169
635.27	62.157
635.52	62.138
635.78	62.132
636.03	62.138
636.29	62.115
636.54	62.152
636.80	62.140
637.05	62.130
637.31	62.132
637.57	62.102
637.82	62.185
638.08	62.193
638.33	62.205
638.59	62.150
638.84	62.151
639.10	62.158
639.35	62.154
639.61	62.116
639.86	62.098
640.12	62.100
640.38	62.073
640.63	62.051
640.89	62.048
641.14	62.031
641.40	62.005
641.65	61.994
641.91	61.963
642.16	61.953
642.42	61.986
642.67	61.939
642.93	61.891
643.19	61.873
643.44	61.917
643.70	61.949
643.95	61.913
644.21	61.824
644.46	61.829
644.72	61.797
644.97	61.803
645.23	61.787
645.48	61.793
645.74	61.814
645.99	61.741
646.25	61.713
646.50	61.708
646.76	61.712
647.01	61.684
647.27	61.667
647.52	61.620
647.78	61.533
648.04	61.517
648.29	61.565
648.55	61.550
648.80	61.543
649.06	61.531
649.31	61.521
649.57	61.486
649.82	61.439
650.08	61.432
650.33	61.391
650.59	61.346
650.84	61.302
651.10	61.289
651.35	61.242
651.61	61.271
651.86	61.236
652.12	61.237
652.37	61.224
652.63	61.192
652.88	61.171
653.14	61.171
653.39	61.086
653.65	61.026
653.90	60.995
654.16	60.975
654.41	60.996
654.67	60.946
654.92	60.815
655.18	60.853
655.43	60.919
655.69	60.857
655.94	60.789
656.20	60.712
656.45	60.766
656.71	60.883
656.96	60.802
657.22	60.733
657.47	60.693
657.73	60.663
657.98	60.645
658.24	60.625
658.49	60.637
658.75	60.597
659.00	60.604
659.26	60.643
659.51	60.646
659.76	60.642
660.02	60.581
660.27	60.531
660.53	60.464
660.78	60.476
661.04	60.476
661.29	60.443
661.55	60.453
661.80	60.461
662.06	60.494
662.31	60.467
662.57	60.390
662.82	60.421
663.08	60.377
663.33	60.416
663.59	60.446
663.84	60.401
664.10	60.438
664.35	60.445
664.60	60.449
664.86	60.389
665.11	60.369
665.37	60.409
665.62	60.359
665.88	60.378
666.13	60.316
666.39	60.288
666.64	60.247
666.90	60.289
667.15	60.298
667.40	60.269
667.66	60.306
667.91	60.338
668.17	60.364
668.42	60.309
668.68	60.335
668.93	60.364
669.19	60.428
669.44	60.404
669.70	60.395
669.95	60.455
670.20	60.439
670.46	60.396
670.71	60.338
670.97	60.350
671.22	60.292
671.48	60.363
671.73	60.381
671.99	60.430
672.24	60.480
672.49	60.504
672.75	60.478
673.00	60.564
673.26	60.543
673.51	60.500
673.77	60.477
674.02	60.550
674.27	60.498
674.53	60.501
674.78	60.556
675.04	60.564
675.29	60.621
675.55	60.649
675.80	60.616
676.05	60.658
676.31	60.677
676.56	60.750
676.82	60.766
677.07	60.773
677.33	60.816
677.58	60.808
677.83	60.830
678.09	60.876
678.34	60.849
678.60	60.880
678.85	60.924
679.10	60.919
679.36	60.933
679.61	60.992
679.87	60.983
680.12	60.966
680.38	60.908
680.63	60.907
680.88	60.962
681.14	61.026
681.39	61.075
681.65	61.133
681.90	61.136
682.15	61.171
682.41	61.229
682.66	61.283
682.92	61.270
683.17	61.267
683.42	61.294
683.68	61.287
683.93	61.278
684.19	61.312
684.44	61.328
684.69	61.324
684.95	61.299
685.20	61.429
685.46	61.540
685.71	61.609
685.96	61.637
686.22	61.679
686.47	61.670
686.73	61.682
686.98	61.699
687.23	61.806
687.49	61.874
687.74	61.935
687.99	61.942
688.25	61.926
688.50	61.940
688.76	61.964
689.01	62.010
689.26	62.071
689.52	62.114
689.77	62.144
690.02	62.123
690.28	62.161
690.53	62.210
690.79	62.215
691.04	62.236
691.29	62.222
691.55	62.222
691.80	62.284
692.05	62.366
692.31	62.412
692.56	62.432
692.82	62.489
693.07	62.587
693.32	62.580
693.58	62.567
693.83	62.629
694.08	62.617
694.34	62.705
694.59	62.734
694.85	62.812
695.10	62.868
695.35	62.910
695.61	62.928
695.86	62.952
696.11	62.969
696.37	62.980
696.62	63.030
696.87	63.042
697.13	63.059
697.38	63.167
697.63	63.174
697.89	63.190
698.14	63.233
698.39	63.256
698.65	63.340
698.90	63.356
699.16	63.383
699.41	63.486
699.66	63.488
699.92	63.531
700.17	63.529
700.42	63.539
700.68	63.609
700.93	63.623
701.18	63.632
701.44	63.663
701.69	63.690
701.94	63.758
702.20	63.774
702.45	63.861
702.70	63.898
702.96	63.897
703.21	64.001
703.46	64.103
703.72	64.127
703.97	64.174
704.22	64.198
704.48	64.214
704.73	64.243
704.98	64.279
705.24	64.320
705.49	64.359
705.74	64.404
706.00	64.420
706.25	64.468
706.50	64.533
706.76	64.564
707.01	64.575
707.26	64.587
707.52	64.620
707.77	64.662
708.02	64.795
708.27	64.795
708.53	64.865
708.78	64.923
709.03	64.955
709.29	64.996
709.54	65.024
709.79	65.101
710.05	65.085
710.30	65.078
710.55	65.113
710.81	65.195
711.06	65.225
711.31	65.204
711.57	65.279
711.82	65.389
712.07	65.495
712.32	65.480
712.58	65.506
712.83	65.519
713.08	65.492
713.34	65.480
713.59	65.584
713.84	65.612
714.10	65.639
714.35	65.686
714.60	65.725
714.85	65.761
715.11	65.750
715.36	65.796
715.61	65.867
715.87	65.887
716.12	65.940
716.37	65.986
716.62	66.068
716.88	66.118
717.13	66.154
717.38	66.159
717.64	66.175
717.89	66.194
718.14	66.279
718.39	66.283
718.65	66.356
718.90	66.383
719.15	66.403
719.41	66.426
719.66	66.370
719.91	66.403
720.16	66.411
720.42	66.469
720.67	66.577
720.92	66.633
721.18	66.631
721.43	66.638
721.68	66.735
721.93	66.775
722.19	66.789
722.44	66.888
722.69	66.896
722.94	66.951
723.20	66.933
723.45	66.948
723.70	66.922
723.95	66.916
724.21	66.989
724.46	66.998
724.71	67.010
724.97	67.055
725.22	67.138
725.47	67.221
725.72	67.245
725.98	67.286
726.23	67.347
726.48	67.405
726.73	67.554
726.99	67.553
727.24	67.529
727.49	67.532
727.74	67.558
728.00	67.597
728.25	67.713
728.50	67.737
728.75	67.818
729.01	67.786
729.26	67.797
729.51	67.742
729.76	67.706
730.02	67.736
730.27	67.803
730.52	67.789
730.77	67.819
731.03	67.864
731.28	67.894
731.53	67.917
731.78	67.966
732.03	68.016
732.29	67.992
732.54	68.033
732.79	68.043
733.04	68.118
733.30	68.157
733.55	68.213
733.80	68.267
734.05	68.358
734.31	68.449
734.56	68.442
734.81	68.455
735.06	68.471
735.31	68.490
735.57	68.514
735.82	68.483
736.07	68.538
736.32	68.579
736.58	68.621
736.83	68.594
737.08	68.643
737.33	68.695
737.58	68.651
737.84	68.750
738.09	68.788
738.34	68.820
738.59	68.777
738.85	68.771
739.10	68.745
739.35	68.700
739.60	68.630
739.85	68.652
740.11	68.712
740.36	68.747
740.61	68.863
740.86	68.965
741.11	69.003
741.37	69.039
741.62	69.024
741.87	68.998
742.12	68.999
742.37	69.067
742.63	69.095
742.88	69.109
743.13	69.157
743.38	69.141
743.63	69.089
743.89	69.151
744.14	69.184
744.39	69.213
744.64	69.241
744.89	69.263
745.15	69.337
745.40	69.406
745.65	69.379
745.90	69.359
746.15	69.406
746.41	69.438
746.66	69.532
746.91	69.533
747.16	69.469
747.41	69.486
747.67	69.477
747.92	69.537
748.17	69.514
748.42	69.568
748.67	69.591
748.92	69.638
749.18	69.710
749.43	69.727
749.68	69.701
749.93	69.720
750.18	69.709
750.43	69.730
750.69	69.782
750.94	69.730
751.19	69.700
751.44	69.740
751.69	69.706
751.95	69.767
752.20	69.753
752.45	69.749
752.70	69.817
752.95	69.887
753.20	69.815
753.46	69.804
753.71	69.838
753.96	69.897
754.21	69.985
754.46	69.963
754.71	69.956
754.97	69.923
755.22	69.921
755.47	69.935
755.72	69.935
755.97	69.911
756.22	69.895
756.47	69.831
756.73	69.803
756.98	69.806
757.23	69.773
757.48	69.684
757.73	69.729
757.98	69.875
758.24	70.034
758.49	70.049
758.74	69.986
758.99	69.957
759.24	69.964
759.49	69.925
759.74	69.891
760.00	69.940
760.25	69.966
760.50	69.992
760.75	70.035
761.00	70.033
761.25	70.075
761.50	70.069
761.75	70.032
762.01	70.110
762.26	70.127
762.51	70.161
762.76	70.115
763.01	69.990
763.26	69.954
763.51	69.961
763.77	69.937
764.02	69.946
764.27	69.932
764.52	69.948
764.77	69.970
765.02	69.994
765.27	69.997
765.52	69.943
765.78	69.883
766.03	69.909
766.28	69.873
766.53	69.855
766.78	69.890
767.03	69.970
767.28	69.960
767.53	69.942
767.79	69.907
768.04	69.914
768.29	69.849
768.54	69.743
768.79	69.742
769.04	69.729
769.29	69.805
769.54	69.836
769.79	69.760
770.05	69.742
770.30	69.697
770.55	69.685
770.80	69.691
771.05	69.749
771.30	69.705
771.55	69.821
771.80	69.838
772.05	69.887
772.30	69.873
772.56	69.700
772.81	69.584
773.06	69.652
773.31	69.663
773.56	69.595
773.81	69.601
774.06	69.512
774.31	69.493
774.56	69.479
774.81	69.499
775.07	69.567
775.32	69.559
775.57	69.552
775.82	69.482
776.07	69.493
776.32	69.526
776.57	69.466
776.82	69.438
777.07	69.428
777.32	69.475
777.57	69.395
777.82	69.293
778.08	69.204
778.33	69.174
778.58	69.176
778.83	69.248
779.08	69.180
779.33	69.173
779.58	69.125
779.83	69.132
780.08	69.094
780.33	69.052
780.58	68.959
780.83	68.888
781.08	68.948
781.34	69.029
781.59	69.126
781.84	69.123
782.09	69.098
782.34	69.024
782.59	69.014
782.84	69.022
783.09	68.951
783.34	68.924
783.59	68.886
783.84	68.812
784.09	68.759
784.34	68.777
784.59	68.749
784.84	68.674
785.10	68.657
785.35	68.697
785.60	68.602
785.85	68.572
786.10	68.555
786.35	68.543
786.60	68.447
786.85	68.434
787.10	68.443
787.35	68.368
787.60	68.338
787.85	68.426
788.10	68.428
788.35	68.434
788.60	68.330
788.85	68.313
789.10	68.295
789.35	68.230
789.60	68.144
789.85	68.132
790.10	68.122
790.36	68.115
790.61	68.109
790.86	68.063
791.11	67.911
791.36	67.909
791.61	67.917
791.86	67.835
792.11	67.801
792.36	67.800
792.61	67.777
792.86	67.782
793.11	67.796
793.36	67.757
793.61	67.751
793.86	67.804
794.11	67.822
794.36	67.825
794.61	67.783
794.86	67.767
795.11	67.684
795.36	67.627
795.61	67.557
795.86	67.513
796.11	67.514
796.36	67.528
796.61	67.427
796.86	67.387
797.11	67.363
797.36	67.320
797.61	67.255
797.86	67.304
798.11	67.333
798.36	67.333
798.61	67.297
798.86	67.270
799.11	67.214
799.36	67.240
799.61	67.210
799.86	67.149
800.11	67.126
800.36	67.111
800.61	67.053
800.86	66.976
801.11	66.890
801.36	66.855
801.61	66.911
801.86	66.907
802.11	66.875
802.36	66.895
802.61	66.954
802.86	67.015
803.11	67.037
803.36	66.963
803.61	66.959
803.86	66.917
804.11	66.914
804.36	66.811
804.61	66.735
804.86	66.679
805.11	66.727
805.36	66.647
805.61	66.570
805.86	66.559
806.11	66.530
806.36	66.481
806.61	66.487
806.86	66.454
807.11	66.481
807.36	66.444
807.61	66.387
807.86	66.413
808.11	66.438
808.36	66.465
808.61	66.458
808.86	66.425
809.11	66.446
809.36	66.447
809.61	66.495
809.86	66.532
810.11	66.448
810.36	66.445
810.61	66.443
810.86	66.393
811.11	66.383
811.36	66.375
811.61	66.363
811.86	66.317
812.11	66.241
812.36	66.242
812.61	66.261
812.86	66.238
813.11	66.252
813.36	66.238
813.61	66.275
813.86	66.267
814.11	66.187
814.35	66.137
814.60	66.112
814.85	66.048
815.10	66.063
815.35	66.021
815.60	65.977
815.85	65.942
816.10	66.001
816.35	66.044
816.60	66.093
816.85	66.113
817.10	66.162
817.35	66.106
817.60	66.028
817.85	66.034
818.10	66.059
818.35	66.114
818.60	66.082
818.85	66.128
819.10	66.179
819.34	66.175
819.59	66.183
819.84	66.129
820.09	66.101
820.34	66.086
820.59	66.095
820.84	66.056
821.09	66.072
821.34	66.051
821.59	66.040
821.84	66.034
822.09	65.952
822.34	65.903
822.59	65.979
822.84	65.931
823.08	65.906
823.33	65.920
823.58	65.902
823.83	65.946
824.08	65.968
824.33	66.002
824.58	66.027
824.83	66.003
825.08	66.097
825.33	66.120
825.58	66.172
825.83	66.158
826.08	66.108
826.33	66.127
826.57	66.128
826.82	66.135
827.07	66.155
827.32	66.144
827.57	66.083
827.82	66.081
828.07	66.171
828.32	66.183
828.57	66.221
828.82	66.240
829.07	66.242
829.31	66.212
829.56	66.151
829.81	66.126
830.06	66.121
830.31	66.172
830.56	66.208
830.81	66.151
831.06	66.084
831.31	66.052
831.56	66.083
831.80	66.091
832.05	66.127
832.30	66.151
832.55	66.165
832.80	66.155
833.05	66.211
833.30	66.266
833.55	66.323
833.80	66.325
834.05	66.289
834.29	66.227
834.54	66.300
834.79	66.320
835.04	66.357
835.29	66.404
835.54	66.458
835.79	66.398
836.04	66.303
836.29	66.302
836.53	66.341
836.78	66.399
837.03	66.471
837.28	66.435
837.53	66.426
837.78	66.437
838.03	66.490
838.28	66.533
838.52	66.516
838.77	66.482
839.02	66.498
839.27	66.603
839.52	66.613
839.77	66.616
840.02	66.602
840.27	66.578
840.51	66.597
840.76	66.677
841.01	66.740
841.26	66.735
841.51	66.754
841.76	66.788
842.01	66.759
842.26	66.806
842.50	66.856
842.75	66.832
843.00	66.833
843.25	66.839
843.50	66.816
843.75	66.798
844.00	66.749
844.24	66.770
844.49	66.780
844.74	66.851
844.99	66.817
845.24	66.796
845.49	66.838
845.74	66.839
845.98	66.833
846.23	66.839
846.48	66.867
846.73	66.904
846.98	66.899
847.23	66.841
847.47	66.889
847.72	67.026
847.97	67.087
848.22	67.109
848.47	67.146
848.72	67.111
848.97	67.152
849.21	67.107
849.46	67.185
849.71	67.192
849.96	67.223
850.21	67.326
850.46	67.359
850.70	67.341
850.95	67.383
851.20	67.440
851.45	67.465
851.70	67.489
851.95	67.570
852.19	67.545
852.44	67.473
852.69	67.443
852.94	67.466
853.19	67.435
853.44	67.394
853.68	67.332
853.93	67.360
854.18	67.342
854.43	67.355
854.68	67.314
854.93	67.342
855.17	67.359
855.42	67.400
855.67	67.442
855.92	67.495
856.17	67.471
856.41	67.488
856.66	67.549
856.91	67.561
857.16	67.606
857.41	67.614
857.65	67.538
857.90	67.496
858.15	67.490
858.40	67.524
858.65	67.524
858.90	67.533
859.14	67.621
859.39	67.680
859.64	67.750
859.89	67.825
860.14	67.850
860.38	67.914
860.63	67.962
860.88	68.074
861.13	68.113
861.38	68.035
861.62	68.048
861.87	67.974
862.12	67.951
862.37	67.937
862.62	67.929
862.86	67.960
863.11	68.025
863.36	68.033
863.61	68.064
863.86	68.038
864.10	68.041
864.35	68.046
864.60	68.031
864.85	68.102
865.09	68.210
865.34	68.222
865.59	68.180
865.84	68.211
866.09	68.258
866.33	68.295
866.58	68.333
866.83	68.337
867.08	68.390
867.33	68.444
867.57	68.514
867.82	68.532
868.07	68.527
868.32	68.547
868.56	68.497
868.81	68.422
869.06	68.396
869.31	68.293
869.55	68.254
869.80	68.206
870.05	68.205
870.30	68.241
870.55	68.301
870.79	68.361
871.04	68.436
871.29	68.463
871.54	68.454
871.78	68.411
872.03	68.410
872.28	68.449
872.53	68.383
872.77	68.391
873.02	68.449
873.27	68.422
873.52	68.453
873.76	68.471
874.01	68.536
874.26	68.541
874.51	68.581
874.75	68.596
875.00	68.541
875.25	68.528
875.50	68.538
875.75	68.592
875.99	68.663
876.24	68.722
876.49	68.753
876.74	68.780
876.98	68.851
877.23	68.816
877.48	68.770
877.72	68.757
877.97	68.741
878.22	68.722
878.47	68.767
878.71	68.768
878.96	68.787
879.21	68.756
879.46	68.708
879.70	68.681
879.95	68.622
880.20	68.705
880.45	68.794
880.69	68.836
880.94	68.822
881.19	68.848
881.44	68.804
881.68	68.759
881.93	68.741
882.18	68.752
882.42	68.736
882.67	68.742
882.92	68.756
883.17	68.740
883.41	68.742
883.66	68.698
883.91	68.664
884.16	68.670
884.40	68.630
884.65	68.705
884.90	68.787
885.14	68.857
885.39	68.928
885.64	69.000
885.89	69.035
886.13	69.087
886.38	69.086
886.63	69.213
886.87	69.205
887.12	69.207
887.37	69.236
887.62	69.255
887.86	69.209
888.11	69.201
888.36	69.174
888.60	69.166
888.85	69.080
889.10	69.037
889.35	69.079
889.59	69.115
889.84	69.137
890.09	69.172
890.33	69.164
890.58	69.134
890.83	69.092
891.07	69.051
891.32	69.091
891.57	69.051
891.82	69.041
892.06	69.010
892.31	69.005
892.56	68.964
892.80	68.907
893.05	68.910
893.30	68.874
893.54	68.927
893.79	68.922
894.04	68.912
894.28	68.909
894.53	68.955
894.78	68.968
895.02	69.024
895.27	69.063
895.52	69.149
895.77	69.216
896.01	69.199
896.26	69.164
896.51	69.182
896.75	69.198
897.00	69.214
897.25	69.171
897.49	69.180
897.74	69.138
897.99	69.134
898.23	69.162
898.48	69.214
898.73	69.168
898.97	69.116
899.22	69.062
899.47	69.067
899.71	69.117
899.96	69.121
900.21	69.187
900.45	69.273
900.70	69.260
900.95	69.279
901.19	69.227
901.44	69.209
901.69	69.285
901.93	69.309
902.18	69.270
902.43	69.242
902.67	69.126
902.92	69.022
903.17	68.999
903.41	68.947
903.66	68.957
903.91	68.940
904.15	68.946
904.40	69.038
904.65	69.001
904.89	69.069
905.14	69.119
905.38	69.165
905.63	69.193
905.88	69.222
906.12	69.263
906.37	69.248
906.62	69.153
906.86	69.134
907.11	69.136
907.36	69.162
907.60	69.169
907.85	69.100
908.10	69.092
908.34	69.024
908.59	69.009
908.84	69.081
909.08	69.072
909.33	69.106
909.57	69.140
909.82	69.166
910.07	69.225
910.31	69.240
910.56	69.263
910.81	69.237
911.05	69.228
911.30	69.229
911.54	69.273
911.79	69.210
912.04	69.125
912.28	69.117
912.53	69.092
912.78	69.109
913.02	69.114
913.27	69.132
913.51	69.173
913.76	69.181
914.01	69.136
914.25	69.124
914.50	69.127
914.75	69.096
914.99	69.078
915.24	69.018
915.48	68.928
915.73	68.931
915.98	68.961
916.22	68.959
916.47	68.952
916.71	68.935
916.96	68.955
917.21	68.969
917.45	69.046
917.70	69.032
917.95	68.969
918.19	68.925
918.44	68.905
918.68	68.988
918.93	69.023
919.18	69.047
919.42	69.143
919.67	69.186
919.91	69.227
920.16	69.225
920.41	69.244
920.65	69.266
920.90	69.197
921.14	69.152
921.39	69.081
921.64	69.042
921.88	69.036
922.13	69.078
922.37	69.068
922.62	69.056
922.87	69.075
923.11	69.022
923.36	69.055
923.60	69.079
923.85	69.030
924.09	69.030
924.34	69.036
924.59	69.109
924.83	69.138
925.08	69.162
925.32	69.193
925.57	69.184
925.82	69.202
926.06	69.240
926.31	69.229
926.55	69.237
926.80	69.283
927.04	69.229
927.29	69.206
927.54	69.204
927.78	69.265
928.03	69.263
928.27	69.307
928.52	69.270
928.76	69.274
929.01	69.298
929.26	69.328
929.50	69.403
929.75	69.355
929.99	69.343
930.24	69.364
930.48	69.377
930.73	69.369
930.98	69.366
931.22	69.438
931.47	69.475
931.71	69.435
931.96	69.431
932.20	69.369
932.45	69.359
932.69	69.402
932.94	69.370
933.19	69.391
933.43	69.403
933.68	69.510
933.92	69.559
934.17	69.598
934.41	69.581
934.66	69.660
934.90	69.699
935.15	69.729
935.39	69.730
935.64	69.728
935.89	69.641
936.13	69.505
936.38	69.449
936.62	69.414
936.87	69.390
937.11	69.510
937.36	69.500
937.60	69.446
937.85	69.488
938.09	69.573
938.34	69.646
938.59	69.631
938.83	69.600
939.08	69.656
939.32	69.672
939.57	69.597
939.81	69.640
940.06	69.635
940.30	69.604
940.55	69.550
940.79	69.608
941.04	69.624
941.28	69.639
941.53	69.624
941.77	69.554
942.02	69.563
942.26	69.668
942.51	69.634
942.76	69.641
943.00	69.653
943.25	69.741
943.49	69.731
943.74	69.757
943.98	69.745
944.23	69.774
944.47	69.740
944.72	69.730
944.96	69.790
945.21	69.779
945.45	69.781
945.70	69.866
945.94	69.914
946.19	69.909
946.43	69.825
946.68	69.856
946.92	69.944
947.17	69.913
947.41	69.931
947.66	69.930
947.90	69.964
948.15	69.954
948.39	69.974
948.64	70.030
948.88	69.999
949.13	69.994
949.37	69.942
949.62	69.957
949.86	69.928
950.11	69.869
950.35	69.900
950.60	69.977
950.84	70.029
951.09	70.036
951.33	69.983
951.58	70.034
951.82	70.010
952.07	69.902
952.31	69.841
952.56	69.855
952.80	69.843
953.05	69.901
953.29	69.879
953.54	69.816
953.78	69.792
954.03	69.761
954.27	69.767
954.52	69.802
954.76	69.796
955.01	69.890
955.25	70.025
955.50	70.000
955.74	69.984
955.99	70.040
956.23	70.112
956.47	70.031
956.72	70.088
956.96	70.175
957.21	70.172
957.45	70.265
957.70	70.223
957.94	70.193
958.19	70.108
958.43	70.108
958.68	70.079
958.92	70.051
959.17	69.960
959.41	69.931
959.66	69.967
959.90	70.112
960.14	70.080
960.39	70.138
960.63	70.129
960.88	70.150
961.12	70.094
961.37	70.097
961.61	70.117
961.86	70.090
962.10	70.129
962.35	70.224
962.59	70.172
962.84	70.133
963.08	70.194
963.32	70.215
963.57	70.323
963.81	70.345
964.06	70.419
964.30	70.425
964.55	70.422
964.79	70.371
965.04	70.398
965.28	70.445
965.52	70.366
965.77	70.353
966.01	70.420
966.26	70.435
966.50	70.461
966.75	70.333
966.99	70.342
967.24	70.428
967.48	70.484
967.72	70.388
967.97	70.344
968.21	70.331
968.46	70.385
968.70	70.312
968.95	70.294
969.19	70.346
969.43	70.345
969.68	70.165
969.92	70.120
970.17	70.066
970.41	70.034
970.66	70.026
970.90	70.096
971.14	70.230
971.39	70.202
971.63	70.164
971.88	70.228
972.12	70.122
972.37	70.081
972.61	70.145
972.85	70.134
973.10	70.209
973.34	70.220
973.59	70.228
973.83	70.181
974.08	70.086
974.32	70.092
974.56	70.067
974.81	70.027
975.05	70.050
975.30	70.033
975.54	70.073
975.78	70.122
976.03	70.114
976.27	69.958
976.52	70.044
976.76	70.106
977.00	70.191
977.25	70.305
977.49	70.313
977.74	70.374
977.98	70.360
978.22	70.248
978.47	70.372
978.71	70.399
978.96	70.447
979.20	70.478
979.44	70.562
979.69	70.432
979.93	70.360
980.18	70.320
980.42	70.303
980.66	70.276
980.91	70.209
981.15	70.229
981.40	70.191
981.64	70.099
981.88	70.108
982.13	70.145
982.37	70.019
982.62	70.002
982.86	70.100
983.10	70.208
983.35	70.239
983.59	70.127
983.83	70.106
984.08	70.123
984.32	70.207
984.57	70.272
984.81	70.169
985.05	70.110
985.30	70.093
985.54	70.098
985.78	70.083
986.03	69.954
986.27	70.003
986.52	70.103
986.76	70.113
987.00	70.085
987.25	69.974
987.49	69.975
987.73	70.062
987.98	69.960
988.22	69.829
988.47	69.849
988.71	69.895
988.95	69.861
989.20	69.878
989.44	69.984
989.68	70.030
989.93	69.938
990.17	69.920
990.41	69.817
990.66	69.813
990.90	69.747
991.15	69.791
991.39	69.751
991.63	69.738
991.88	69.753
992.12	69.815
992.36	69.796
992.61	69.659
992.85	69.577
993.09	69.630
993.34	69.657
993.58	69.709
993.82	69.595
994.07	69.517
994.31	69.392
994.55	69.333
994.80	69.442
995.04	69.572
995.28	69.587
995.53	69.530
995.77	69.443
996.01	69.508
996.26	69.456
996.50	69.423
996.74	69.331
996.99	69.266
997.23	69.375
997.48	69.195
997.72	69.270
997.96	69.253
998.21	69.335
998.45	69.293
998.69	69.224
998.93	69.184
999.18	69.219
999.42	69.291
999.66	69.184
999.91	69.060
1000.15	69.143
1000.39	69.125
1000.64	69.018
1000.88	69.001
1001.12	68.892
1001.37	68.804
1001.61	68.685
1001.85	68.690
1002.10	68.589
1002.34	68.447
1002.58	68.388
1002.83	68.402
1003.07	68.344
1003.31	68.255
1003.56	68.341
1003.80	68.267
1004.04	68.392
1004.29	68.295
1004.53	68.245
1004.77	68.147
1005.01	68.062
1005.26	68.155
1005.50	68.219
1005.74	68.158
1005.99	67.968
1006.23	67.948
1006.47	68.018
1006.72	68.081
1006.96	68.062
1007.20	68.046
1007.45	68.006
1007.69	67.849
1007.93	67.844
1008.17	67.883
1008.42	67.962
1008.66	67.750
1008.90	67.739
1009.15	67.640
1009.39	67.614
1009.63	67.719
1009.87	67.592
1010.12	67.611
1010.36	67.687
1010.60	67.531
1010.85	67.274
1011.09	67.308
1011.33	67.321
1011.58	67.299
1011.82	67.316
1012.06	67.415
1012.30	67.424
1012.55	67.471
1012.79	67.380
1013.03	67.267
1013.28	67.171
1013.52	67.088
1013.76	67.085
1014.00	66.888
1014.25	66.950
1014.49	66.941
1014.73	66.966
1014.97	66.883
1015.22	66.833
1015.46	66.937
1015.70	67.002
1015.95	66.864
1016.19	66.599
1016.43	66.453
1016.67	66.524
1016.92	66.586
1017.16	66.659
1017.40	66.603
1017.64	66.616
1017.89	66.710
1018.13	66.688
1018.37	66.507
1018.61	66.376
1018.86	66.628
1019.10	66.534
1019.34	66.298
1019.59	66.104
1019.83	66.137
1020.07	66.259
1020.31	66.191
1020.56	66.122
1020.80	65.920
1021.04	65.874
1021.28	65.961
1021.53	65.871
1021.77	65.718
1022.01	65.743
1022.25	65.556
1022.50	65.630
1022.74	65.453
1022.98	65.372
1023.22	65.449
1023.47	65.365
1023.71	65.315
1023.95	65.316
1024.19	65.255
1024.44	65.323
1024.68	65.265
1024.92	65.142
1025.16	65.196
1025.41	65.119
1025.65	65.171
1025.89	65.145
1026.13	64.907
1026.37	64.897
1026.62	65.002
1026.86	64.996
1027.10	64.814
1027.34	64.824
1027.59	64.631
1027.83	64.614
1028.07	64.554
1028.31	64.515
1028.56	64.696
1028.80	64.463
1029.04	64.338
1029.28	64.311
1029.52	64.055
1029.77	63.886
1030.01	63.962
1030.25	63.832
1030.49	63.968
1030.74	63.717
1030.98	63.843
1031.22	63.967
1031.46	63.815
1031.70	63.951
1031.95	63.768
1032.19	63.558
1032.43	63.587
1032.67	63.288
1032.92	63.351
1033.16	63.325
1033.40	63.352
1033.64	63.167
1033.88	63.246
1034.13	63.241
1034.37	63.148
1034.61	63.008
1034.85	62.979
1035.09	63.055
1035.34	62.831
1035.58	63.041
1035.82	62.890
1036.06	62.595
1036.30	62.702
1036.55	62.869
1036.79	62.629
1037.03	62.386
1037.27	62.315
1037.51	62.391
1037.76	62.393
1038.00	62.287
1038.24	62.502
1038.48	62.355
1038.72	62.125
1038.97	61.999
1039.21	62.070
1039.45	62.013
1039.69	62.249
1039.93	61.996
1040.18	61.935
1040.42	61.739
1040.66	61.621
1040.90	61.497
1041.14	61.347
1041.38	61.424
1041.63	61.373
1041.87	61.095
1042.11	60.846
1042.35	61.218
1042.59	61.208
1042.84	60.830
1043.08	61.087
1043.32	61.110
1043.56	61.011
1043.80	60.982
1044.04	61.144
1044.29	60.934
1044.53	60.778
1044.77	60.642
1045.01	60.510
1045.25	60.364
1045.49	60.579
1045.74	60.621
1045.98	60.369
1046.22	60.326
1046.46	60.319
1046.70	60.085
1046.94	60.038
1047.19	60.052
1047.43	59.805
1047.67	59.659
1047.91	59.585
1048.15	59.512
1048.39	59.459
1048.64	59.950
1048.88	59.919
1049.12	59.612
1049.36	59.714
1049.60	59.855
1049.84	59.847
1050.09	59.580
1050.33	59.111
1050.57	59.688
1050.81	59.888
1051.05	59.794
1051.29	59.589
1051.53	59.421
1051.78	59.261
1052.02	59.282
1052.26	59.365
1052.50	59.510
1052.74	59.040
1052.98	59.081
1053.22	58.807
1053.47	58.575
1053.71	58.228
1053.95	58.349
1054.19	58.306
1054.43	58.413
1054.67	58.266
1054.91	58.222
1055.16	58.257
1055.40	58.208
1055.64	58.185
1055.88	58.639
1056.12	58.238
1056.36	57.717
1056.60	58.102
1056.85	58.616
1057.09	58.096
1057.33	58.181
1057.57	57.941
1057.81	58.096
1058.05	58.202
1058.29	58.139
1058.53	57.618
1058.78	57.669
1059.02	57.491
1059.26	57.197
1059.50	57.643
1059.74	57.627
1059.98	58.087
1060.22	57.333
1060.46	56.701
1060.71	57.318
1060.95	57.328
1061.19	57.010
1061.43	56.997
1061.67	57.079
1061.91	56.969
1062.15	56.852
1062.39	57.243
1062.63	57.008
1062.88	57.145
1063.12	56.713
1063.36	56.684
1063.60	56.537
1063.84	56.399
1064.08	56.001
1064.32	56.472
1064.56	56.456
1064.80	56.509
1065.05	56.571
1065.29	55.905
1065.53	56.128
1065.77	55.705
1066.01	55.756
1066.25	55.670
1066.49	56.458
1066.73	55.624
1066.97	55.079
1067.21	56.219
1067.46	55.960
1067.70	56.154
1067.94	56.001
1068.18	56.200
1068.42	55.552
1068.66	55.594
1068.90	55.461
1069.14	55.480
1069.38	55.579
1069.62	55.223
1069.86	55.854
1070.11	55.541
1070.35	55.603
1070.59	54.933
1070.83	55.172
1071.07	55.647
1071.31	54.661
1071.55	54.806
1071.79	54.085
1072.03	54.686
1072.27	55.476
1072.51	54.789
1072.75	55.123
1072.99	54.687
1073.24	55.030
1073.48	55.204
1073.72	54.654
1073.96	54.763
1074.20	55.438
1074.44	54.656
1074.68	55.016
1074.92	55.130
1075.16	54.964
1075.40	53.974
1075.64	54.693
1075.88	54.900
1076.12	54.274
1076.36	54.348
1076.61	54.593
1076.85	54.127
1077.09	54.646
1077.33	53.632
1077.57	54.363
1077.81	54.694
1078.05	54.215
1078.29	53.253
1078.53	53.322
1078.77	54.328
1079.01	54.843
1079.25	54.036
1079.49	54.249
1079.73	53.157
1079.97	53.849
1080.21	53.978
1080.45	53.448
1080.69	53.168
1080.94	54.110
1081.18	54.138
1081.42	54.031
1081.66	53.714
1081.90	52.541
1082.14	52.444
1082.38	53.685
1082.62	53.531
1082.86	53.254
1083.10	53.398
1083.34	52.782
1083.58	52.012
1083.82	52.436
1084.06	52.493
1084.30	52.267
1084.54	51.672
1084.78	52.798
1085.02	52.993
1085.26	52.805
1085.50	52.787
1085.74	53.022
1085.98	53.474
1086.22	53.590
1086.46	53.107
1086.70	52.139
1086.94	52.492
1087.18	52.332
1087.43	52.162
1087.67	52.333
1087.91	52.026
1088.15	53.167
1088.39	54.084
1088.63	52.756
1088.87	52.040
1089.11	52.715
1089.35	50.372
1089.59	50.754
1089.83	51.030
1090.07	52.428
1090.31	52.290
1090.55	50.669
1090.79	50.725
1091.03	51.183
1091.27	51.315
1091.51	51.589
1091.75	51.206
1091.99	49.934
1092.23	50.469
1092.47	49.729
1092.71	50.882
1092.95	50.550
1093.19	49.598
1093.43	51.648
1093.67	50.305
1093.91	50.945
1094.15	50.371
1094.39	50.258
1094.63	51.497
1094.87	50.876
1095.11	50.512
1095.35	49.872
1095.59	50.045
1095.83	49.535
1096.07	49.579
1096.31	50.804
1096.55	50.044
1096.79	48.773
1097.03	50.171
1097.27	50.493
1097.51	49.648
1097.75	50.969
1097.99	51.079
1098.23	50.644
1098.47	49.698
1098.71	49.873
1098.95	49.338
1099.19	50.607
1099.43	49.488
1099.67	49.818
1099.91	50.977
1100.15	49.885
1100.39	49.401
1100.63	50.092
1100.87	49.800
1101.11	48.113
1101.35	49.920
1101.59	49.957
1101.83	47.800
1102.07	48.685
1102.31	49.402
1102.54	50.876
1102.78	51.584
1103.02	48.614
1103.26	47.750
1103.50	49.401
1103.74	49.517
1103.98	50.049
1104.22	48.037
1104.46	48.243
1104.70	46.871
1104.94	47.906
1105.18	49.320
1105.42	50.631
1105.66	47.895
1105.90	48.586
1106.14	50.648
1106.38	49.578
1106.62	47.800
1106.86	48.890
1107.10	48.558
1107.34	47.007
1107.58	46.046
1107.82	45.134
1108.06	45.395
1108.30	48.053
1108.54	48.635
1108.78	51.289
1109.01	46.940
1109.25	48.338
1109.49	47.756
1109.73	48.699
1109.97	47.041
1110.21	46.441
1110.45	46.224
1110.69	48.380
1110.93	44.759
1111.17	46.091
1111.41	46.501
1111.65	46.063
1111.89	44.331
1112.13	46.454
1112.37	47.506
1112.61	46.934
1112.85	44.001
1113.09	42.515
1113.32	43.385
1113.56	44.825
1113.80	43.293
1114.04	46.948
1114.28	43.650
1114.52	42.304
1114.76	44.600
1115.00	42.714
1115.24	40.870
1115.48	43.845
1115.72	46.715
1115.96	45.252
1116.20	43.485
1116.44	44.524
1116.67	44.160
1116.91	43.046
1117.15	41.428
1117.39	43.690
1117.63	44.310
1117.87	42.923
1118.11	42.064
1118.35	43.735
1118.59	41.764
1118.83	43.973
1119.07	41.051
1119.31	42.724
1119.55	42.415
1119.78	41.606
1120.02	40.605
1120.26	42.316
1120.50	42.609
1120.74	39.219
1120.98	33.153
1121.22	40.491
1121.46	35.815
1121.70	37.300
1121.94	40.916
1122.18	42.212
1122.41	39.894
1122.65	43.056
1122.89	38.297
1123.13	42.173
>>>>>End Processed Spectral Data<<<<<
